Dolomite (Navarra, Spain) 10K, E perpendicular c
Column 1: wavelength in micron
Column 2: n 
Column 3: k 
*********************************************
0.2000E+01     0.1624E+01     0.6056E-04
0.2050E+01     0.1623E+01     0.6573E-04
0.2099E+01     0.1622E+01     0.7124E-04
0.2148E+01     0.1621E+01     0.7710E-04
0.2198E+01     0.1620E+01     0.8332E-04
0.2248E+01     0.1619E+01     0.8994E-04
0.2297E+01     0.1618E+01     0.9698E-04
0.2346E+01     0.1617E+01     0.1044E-03
0.2396E+01     0.1615E+01     0.1124E-03
0.2446E+01     0.1614E+01     0.1208E-03
0.2495E+01     0.1613E+01     0.1297E-03
0.2545E+01     0.1611E+01     0.1391E-03
0.2594E+01     0.1610E+01     0.1491E-03
0.2643E+01     0.1608E+01     0.1597E-03
0.2693E+01     0.1607E+01     0.1710E-03
0.2743E+01     0.1605E+01     0.1829E-03
0.2792E+01     0.1604E+01     0.1955E-03
0.2841E+01     0.1602E+01     0.2088E-03
0.2891E+01     0.1600E+01     0.2230E-03
0.2941E+01     0.1598E+01     0.2379E-03
0.2990E+01     0.1597E+01     0.2538E-03
0.3039E+01     0.1595E+01     0.2706E-03
0.3089E+01     0.1593E+01     0.2884E-03
0.3139E+01     0.1591E+01     0.3072E-03
0.3188E+01     0.1589E+01     0.3271E-03
0.3237E+01     0.1587E+01     0.3483E-03
0.3287E+01     0.1584E+01     0.3707E-03
0.3337E+01     0.1582E+01     0.3944E-03
0.3386E+01     0.1580E+01     0.4196E-03
0.3436E+01     0.1577E+01     0.4463E-03
0.3485E+01     0.1575E+01     0.4747E-03
0.3534E+01     0.1572E+01     0.5047E-03
0.3584E+01     0.1570E+01     0.5367E-03
0.3634E+01     0.1567E+01     0.5706E-03
0.3683E+01     0.1564E+01     0.6066E-03
0.3732E+01     0.1561E+01     0.6450E-03
0.3782E+01     0.1558E+01     0.6857E-03
0.3832E+01     0.1555E+01     0.7291E-03
0.3881E+01     0.1552E+01     0.7754E-03
0.3930E+01     0.1549E+01     0.8247E-03
0.3980E+01     0.1545E+01     0.8772E-03
0.4029E+01     0.1542E+01     0.9333E-03
0.4079E+01     0.1538E+01     0.9932E-03
0.4128E+01     0.1534E+01     0.1057E-02
0.4178E+01     0.1530E+01     0.1126E-02
0.4228E+01     0.1526E+01     0.1199E-02
0.4277E+01     0.1521E+01     0.1278E-02
0.4327E+01     0.1517E+01     0.1362E-02
0.4376E+01     0.1512E+01     0.1453E-02
0.4426E+01     0.1507E+01     0.1550E-02
0.4475E+01     0.1502E+01     0.1655E-02
0.4524E+01     0.1497E+01     0.1768E-02
0.4574E+01     0.1491E+01     0.1890E-02
0.4623E+01     0.1485E+01     0.2022E-02
0.4673E+01     0.1479E+01     0.2165E-02
0.4723E+01     0.1473E+01     0.2320E-02
0.4772E+01     0.1466E+01     0.2489E-02
0.4822E+01     0.1459E+01     0.2672E-02
0.4871E+01     0.1452E+01     0.2871E-02
0.4920E+01     0.1444E+01     0.3089E-02
0.4970E+01     0.1436E+01     0.3327E-02
0.5019E+01     0.1427E+01     0.3589E-02
0.5069E+01     0.1418E+01     0.3876E-02
0.5119E+01     0.1409E+01     0.4193E-02
0.5168E+01     0.1398E+01     0.4544E-02
0.5218E+01     0.1388E+01     0.4932E-02
0.5267E+01     0.1376E+01     0.5364E-02
0.5316E+01     0.1364E+01     0.5846E-02
0.5366E+01     0.1350E+01     0.6386E-02
0.5415E+01     0.1336E+01     0.6993E-02
0.5465E+01     0.1321E+01     0.7678E-02
0.5514E+01     0.1305E+01     0.8456E-02
0.5564E+01     0.1287E+01     0.9344E-02
0.5614E+01     0.1268E+01     0.1036E-01
0.5663E+01     0.1247E+01     0.1154E-01
0.5713E+01     0.1224E+01     0.1291E-01
0.5762E+01     0.1198E+01     0.1452E-01
0.5811E+01     0.1170E+01     0.1642E-01
0.5861E+01     0.1139E+01     0.1870E-01
0.5910E+01     0.1104E+01     0.2146E-01
0.5960E+01     0.1065E+01     0.2488E-01
0.6010E+01     0.1019E+01     0.2916E-01
0.6059E+01     0.9670E+00     0.3469E-01
0.6109E+01     0.9054E+00     0.4205E-01
0.6158E+01     0.8314E+00     0.5230E-01
0.6207E+01     0.7398E+00     0.6762E-01
0.6257E+01     0.6216E+00     0.9337E-01
0.6306E+01     0.4593E+00     0.1480E+00
0.6356E+01     0.2596E+00     0.3102E+00
0.6405E+01     0.1727E+00     0.5594E+00
0.6455E+01     0.1512E+00     0.7791E+00
0.6505E+01     0.1488E+00     0.9839E+00
0.6554E+01     0.1568E+00     0.1189E+01
0.6604E+01     0.1741E+00     0.1406E+01
0.6653E+01     0.2037E+00     0.1645E+01
0.6702E+01     0.2532E+00     0.1920E+01
0.6752E+01     0.3421E+00     0.2253E+01
0.6801E+01     0.5259E+00     0.2663E+01
0.6851E+01     0.9380E+00     0.3071E+01
0.6901E+01     0.1262E+01     0.3209E+01
0.6950E+01     0.1539E+01     0.4076E+01
0.7000E+01     0.3799E+01     0.5115E+01
0.7049E+01     0.5604E+01     0.2230E+01
0.7098E+01     0.4614E+01     0.8471E+00
0.7148E+01     0.3950E+01     0.4485E+00
0.7197E+01     0.3537E+01     0.2842E+00
0.7247E+01     0.3259E+01     0.1996E+00
0.7296E+01     0.3057E+01     0.1496E+00
0.7346E+01     0.2904E+01     0.1172E+00
0.7396E+01     0.2783E+01     0.9498E-01
0.7445E+01     0.2685E+01     0.7891E-01
0.7495E+01     0.2604E+01     0.6687E-01
0.7544E+01     0.2536E+01     0.5759E-01
0.7593E+01     0.2477E+01     0.5027E-01
0.7643E+01     0.2427E+01     0.4437E-01
0.7692E+01     0.2382E+01     0.3955E-01
0.7742E+01     0.2343E+01     0.3555E-01
0.7792E+01     0.2308E+01     0.3218E-01
0.7841E+01     0.2276E+01     0.2932E-01
0.7891E+01     0.2248E+01     0.2687E-01
0.7940E+01     0.2222E+01     0.2476E-01
0.7989E+01     0.2199E+01     0.2291E-01
0.8039E+01     0.2177E+01     0.2129E-01
0.8088E+01     0.2157E+01     0.1986E-01
0.8138E+01     0.2139E+01     0.1860E-01
0.8188E+01     0.2122E+01     0.1747E-01
0.8237E+01     0.2106E+01     0.1646E-01
0.8287E+01     0.2092E+01     0.1555E-01
0.8336E+01     0.2078E+01     0.1473E-01
0.8386E+01     0.2065E+01     0.1398E-01
0.8435E+01     0.2053E+01     0.1330E-01
0.8485E+01     0.2041E+01     0.1269E-01
0.8534E+01     0.2030E+01     0.1212E-01
0.8584E+01     0.2020E+01     0.1160E-01
0.8633E+01     0.2010E+01     0.1113E-01
0.8682E+01     0.2001E+01     0.1069E-01
0.8732E+01     0.1992E+01     0.1028E-01
0.8781E+01     0.1983E+01     0.9909E-02
0.8831E+01     0.1975E+01     0.9561E-02
0.8880E+01     0.1968E+01     0.9238E-02
0.8930E+01     0.1960E+01     0.8938E-02
0.8979E+01     0.1953E+01     0.8659E-02
0.9029E+01     0.1946E+01     0.8398E-02
0.9079E+01     0.1940E+01     0.8155E-02
0.9128E+01     0.1933E+01     0.7927E-02
0.9178E+01     0.1927E+01     0.7714E-02
0.9227E+01     0.1921E+01     0.7514E-02
0.9277E+01     0.1916E+01     0.7327E-02
0.9326E+01     0.1910E+01     0.7152E-02
0.9376E+01     0.1905E+01     0.6986E-02
0.9425E+01     0.1899E+01     0.6831E-02
0.9475E+01     0.1894E+01     0.6685E-02
0.9524E+01     0.1890E+01     0.6548E-02
0.9573E+01     0.1885E+01     0.6419E-02
0.9623E+01     0.1880E+01     0.6297E-02
0.9672E+01     0.1876E+01     0.6182E-02
0.9722E+01     0.1871E+01     0.6074E-02
0.9771E+01     0.1867E+01     0.5973E-02
0.9821E+01     0.1863E+01     0.5877E-02
0.9870E+01     0.1858E+01     0.5786E-02
0.9920E+01     0.1854E+01     0.5701E-02
0.9970E+01     0.1850E+01     0.5621E-02
0.1002E+02     0.1846E+01     0.5546E-02
0.1007E+02     0.1843E+01     0.5475E-02
0.1012E+02     0.1839E+01     0.5408E-02
0.1017E+02     0.1835E+01     0.5346E-02
0.1022E+02     0.1832E+01     0.5287E-02
0.1027E+02     0.1828E+01     0.5232E-02
0.1032E+02     0.1824E+01     0.5181E-02
0.1037E+02     0.1821E+01     0.5133E-02
0.1041E+02     0.1818E+01     0.5088E-02
0.1046E+02     0.1814E+01     0.5046E-02
0.1051E+02     0.1811E+01     0.5008E-02
0.1056E+02     0.1808E+01     0.4972E-02
0.1061E+02     0.1804E+01     0.4940E-02
0.1066E+02     0.1801E+01     0.4910E-02
0.1071E+02     0.1798E+01     0.4882E-02
0.1076E+02     0.1795E+01     0.4858E-02
0.1081E+02     0.1792E+01     0.4836E-02
0.1086E+02     0.1789E+01     0.4817E-02
0.1091E+02     0.1785E+01     0.4800E-02
0.1096E+02     0.1782E+01     0.4785E-02
0.1101E+02     0.1779E+01     0.4773E-02
0.1106E+02     0.1776E+01     0.4763E-02
0.1111E+02     0.1773E+01     0.4756E-02
0.1116E+02     0.1770E+01     0.4751E-02
0.1121E+02     0.1767E+01     0.4749E-02
0.1126E+02     0.1764E+01     0.4749E-02
0.1131E+02     0.1761E+01     0.4751E-02
0.1136E+02     0.1759E+01     0.4756E-02
0.1140E+02     0.1756E+01     0.4763E-02
0.1145E+02     0.1753E+01     0.4773E-02
0.1150E+02     0.1750E+01     0.4785E-02
0.1155E+02     0.1747E+01     0.4800E-02
0.1160E+02     0.1744E+01     0.4818E-02
0.1165E+02     0.1741E+01     0.4838E-02
0.1170E+02     0.1738E+01     0.4862E-02
0.1175E+02     0.1735E+01     0.4889E-02
0.1180E+02     0.1732E+01     0.4919E-02
0.1185E+02     0.1729E+01     0.4953E-02
0.1190E+02     0.1726E+01     0.4990E-02
0.1195E+02     0.1723E+01     0.5031E-02
0.1200E+02     0.1720E+01     0.5077E-02
0.1205E+02     0.1717E+01     0.5127E-02
0.1210E+02     0.1714E+01     0.5182E-02
0.1215E+02     0.1710E+01     0.5243E-02
0.1220E+02     0.1707E+01     0.5310E-02
0.1225E+02     0.1704E+01     0.5384E-02
0.1230E+02     0.1701E+01     0.5466E-02
0.1235E+02     0.1697E+01     0.5556E-02
0.1239E+02     0.1694E+01     0.5656E-02
0.1244E+02     0.1690E+01     0.5767E-02
0.1249E+02     0.1687E+01     0.5891E-02
0.1254E+02     0.1683E+01     0.6030E-02
0.1259E+02     0.1679E+01     0.6186E-02
0.1264E+02     0.1675E+01     0.6362E-02
0.1269E+02     0.1671E+01     0.6562E-02
0.1274E+02     0.1667E+01     0.6791E-02
0.1279E+02     0.1662E+01     0.7055E-02
0.1284E+02     0.1658E+01     0.7363E-02
0.1289E+02     0.1653E+01     0.7723E-02
0.1294E+02     0.1647E+01     0.8151E-02
0.1299E+02     0.1642E+01     0.8664E-02
0.1304E+02     0.1635E+01     0.9287E-02
0.1309E+02     0.1629E+01     0.1006E-01
0.1314E+02     0.1621E+01     0.1103E-01
0.1319E+02     0.1613E+01     0.1227E-01
0.1324E+02     0.1603E+01     0.1390E-01
0.1329E+02     0.1592E+01     0.1610E-01
0.1334E+02     0.1579E+01     0.1919E-01
0.1338E+02     0.1563E+01     0.2369E-01
0.1343E+02     0.1543E+01     0.3063E-01
0.1348E+02     0.1516E+01     0.4212E-01
0.1353E+02     0.1479E+01     0.6301E-01
0.1358E+02     0.1426E+01     0.1063E+00
0.1363E+02     0.1357E+01     0.2117E+00
0.1368E+02     0.1373E+01     0.4705E+00
0.1373E+02     0.1774E+01     0.6205E+00
0.1378E+02     0.1976E+01     0.3204E+00
0.1383E+02     0.1920E+01     0.1495E+00
0.1388E+02     0.1859E+01     0.8324E-01
0.1393E+02     0.1815E+01     0.5347E-01
0.1398E+02     0.1784E+01     0.3798E-01
0.1403E+02     0.1760E+01     0.2898E-01
0.1408E+02     0.1742E+01     0.2334E-01
0.1413E+02     0.1728E+01     0.1958E-01
0.1418E+02     0.1716E+01     0.1696E-01
0.1423E+02     0.1705E+01     0.1507E-01
0.1428E+02     0.1696E+01     0.1366E-01
0.1433E+02     0.1688E+01     0.1260E-01
0.1438E+02     0.1681E+01     0.1178E-01
0.1442E+02     0.1674E+01     0.1113E-01
0.1447E+02     0.1668E+01     0.1063E-01
0.1452E+02     0.1662E+01     0.1022E-01
0.1457E+02     0.1657E+01     0.9895E-02
0.1462E+02     0.1652E+01     0.9634E-02
0.1467E+02     0.1647E+01     0.9425E-02
0.1472E+02     0.1642E+01     0.9258E-02
0.1477E+02     0.1637E+01     0.9125E-02
0.1482E+02     0.1633E+01     0.9022E-02
0.1487E+02     0.1629E+01     0.8943E-02
0.1492E+02     0.1625E+01     0.8885E-02
0.1497E+02     0.1620E+01     0.8845E-02
0.1502E+02     0.1616E+01     0.8821E-02
0.1507E+02     0.1612E+01     0.8811E-02
0.1512E+02     0.1609E+01     0.8813E-02
0.1517E+02     0.1605E+01     0.8825E-02
0.1522E+02     0.1601E+01     0.8848E-02
0.1527E+02     0.1597E+01     0.8879E-02
0.1532E+02     0.1593E+01     0.8918E-02
0.1537E+02     0.1590E+01     0.8964E-02
0.1541E+02     0.1586E+01     0.9018E-02
0.1546E+02     0.1582E+01     0.9077E-02
0.1551E+02     0.1578E+01     0.9143E-02
0.1556E+02     0.1575E+01     0.9214E-02
0.1561E+02     0.1571E+01     0.9290E-02
0.1566E+02     0.1567E+01     0.9371E-02
0.1571E+02     0.1564E+01     0.9458E-02
0.1576E+02     0.1560E+01     0.9549E-02
0.1581E+02     0.1556E+01     0.9644E-02
0.1586E+02     0.1553E+01     0.9743E-02
0.1591E+02     0.1549E+01     0.9847E-02
0.1596E+02     0.1545E+01     0.9955E-02
0.1601E+02     0.1542E+01     0.1007E-01
0.1606E+02     0.1538E+01     0.1018E-01
0.1611E+02     0.1534E+01     0.1030E-01
0.1616E+02     0.1531E+01     0.1043E-01
0.1621E+02     0.1527E+01     0.1056E-01
0.1626E+02     0.1523E+01     0.1069E-01
0.1631E+02     0.1519E+01     0.1082E-01
0.1636E+02     0.1515E+01     0.1096E-01
0.1640E+02     0.1511E+01     0.1111E-01
0.1645E+02     0.1508E+01     0.1126E-01
0.1650E+02     0.1504E+01     0.1141E-01
0.1655E+02     0.1500E+01     0.1156E-01
0.1660E+02     0.1496E+01     0.1172E-01
0.1665E+02     0.1492E+01     0.1189E-01
0.1670E+02     0.1488E+01     0.1206E-01
0.1675E+02     0.1484E+01     0.1223E-01
0.1680E+02     0.1480E+01     0.1241E-01
0.1685E+02     0.1476E+01     0.1259E-01
0.1690E+02     0.1472E+01     0.1277E-01
0.1695E+02     0.1467E+01     0.1296E-01
0.1700E+02     0.1463E+01     0.1316E-01
0.1705E+02     0.1459E+01     0.1336E-01
0.1710E+02     0.1455E+01     0.1356E-01
0.1715E+02     0.1450E+01     0.1377E-01
0.1720E+02     0.1446E+01     0.1399E-01
0.1725E+02     0.1442E+01     0.1421E-01
0.1730E+02     0.1437E+01     0.1443E-01
0.1734E+02     0.1433E+01     0.1466E-01
0.1739E+02     0.1428E+01     0.1490E-01
0.1744E+02     0.1424E+01     0.1514E-01
0.1749E+02     0.1419E+01     0.1539E-01
0.1754E+02     0.1414E+01     0.1564E-01
0.1759E+02     0.1410E+01     0.1590E-01
0.1764E+02     0.1405E+01     0.1617E-01
0.1769E+02     0.1400E+01     0.1644E-01
0.1774E+02     0.1395E+01     0.1672E-01
0.1779E+02     0.1390E+01     0.1700E-01
0.1784E+02     0.1386E+01     0.1730E-01
0.1789E+02     0.1380E+01     0.1760E-01
0.1794E+02     0.1375E+01     0.1790E-01
0.1799E+02     0.1370E+01     0.1822E-01
0.1804E+02     0.1365E+01     0.1854E-01
0.1809E+02     0.1360E+01     0.1887E-01
0.1814E+02     0.1355E+01     0.1921E-01
0.1819E+02     0.1349E+01     0.1956E-01
0.1824E+02     0.1344E+01     0.1992E-01
0.1829E+02     0.1338E+01     0.2028E-01
0.1834E+02     0.1333E+01     0.2066E-01
0.1838E+02     0.1327E+01     0.2105E-01
0.1843E+02     0.1321E+01     0.2144E-01
0.1848E+02     0.1316E+01     0.2185E-01
0.1853E+02     0.1310E+01     0.2227E-01
0.1858E+02     0.1304E+01     0.2269E-01
0.1863E+02     0.1298E+01     0.2313E-01
0.1868E+02     0.1292E+01     0.2359E-01
0.1873E+02     0.1285E+01     0.2405E-01
0.1878E+02     0.1279E+01     0.2453E-01
0.1883E+02     0.1273E+01     0.2502E-01
0.1888E+02     0.1266E+01     0.2553E-01
0.1893E+02     0.1260E+01     0.2604E-01
0.1898E+02     0.1253E+01     0.2658E-01
0.1903E+02     0.1246E+01     0.2713E-01
0.1908E+02     0.1240E+01     0.2770E-01
0.1913E+02     0.1233E+01     0.2828E-01
0.1918E+02     0.1226E+01     0.2888E-01
0.1923E+02     0.1218E+01     0.2950E-01
0.1928E+02     0.1211E+01     0.3014E-01
0.1932E+02     0.1204E+01     0.3079E-01
0.1937E+02     0.1196E+01     0.3147E-01
0.1942E+02     0.1189E+01     0.3217E-01
0.1947E+02     0.1181E+01     0.3290E-01
0.1952E+02     0.1173E+01     0.3364E-01
0.1957E+02     0.1165E+01     0.3441E-01
0.1962E+02     0.1157E+01     0.3521E-01
0.1967E+02     0.1149E+01     0.3604E-01
0.1972E+02     0.1140E+01     0.3689E-01
0.1977E+02     0.1132E+01     0.3777E-01
0.1982E+02     0.1123E+01     0.3869E-01
0.1987E+02     0.1114E+01     0.3963E-01
0.1992E+02     0.1105E+01     0.4062E-01
0.1997E+02     0.1096E+01     0.4164E-01
0.2002E+02     0.1086E+01     0.4269E-01
0.2007E+02     0.1077E+01     0.4379E-01
0.2012E+02     0.1067E+01     0.4493E-01
0.2017E+02     0.1057E+01     0.4612E-01
0.2022E+02     0.1047E+01     0.4736E-01
0.2027E+02     0.1036E+01     0.4865E-01
0.2032E+02     0.1025E+01     0.4999E-01
0.2036E+02     0.1015E+01     0.5139E-01
0.2041E+02     0.1003E+01     0.5285E-01
0.2046E+02     0.9921E+00     0.5438E-01
0.2051E+02     0.9804E+00     0.5598E-01
0.2056E+02     0.9685E+00     0.5766E-01
0.2061E+02     0.9563E+00     0.5942E-01
0.2066E+02     0.9438E+00     0.6127E-01
0.2071E+02     0.9310E+00     0.6321E-01
0.2076E+02     0.9178E+00     0.6525E-01
0.2081E+02     0.9043E+00     0.6741E-01
0.2086E+02     0.8905E+00     0.6969E-01
0.2091E+02     0.8762E+00     0.7210E-01
0.2096E+02     0.8616E+00     0.7465E-01
0.2101E+02     0.8465E+00     0.7737E-01
0.2106E+02     0.8310E+00     0.8026E-01
0.2111E+02     0.8150E+00     0.8334E-01
0.2116E+02     0.7985E+00     0.8663E-01
0.2121E+02     0.7814E+00     0.9017E-01
0.2126E+02     0.7638E+00     0.9397E-01
0.2130E+02     0.7456E+00     0.9807E-01
0.2135E+02     0.7268E+00     0.1025E+00
0.2140E+02     0.7072E+00     0.1074E+00
0.2145E+02     0.6870E+00     0.1126E+00
0.2150E+02     0.6659E+00     0.1184E+00
0.2155E+02     0.6440E+00     0.1248E+00
0.2160E+02     0.6212E+00     0.1319E+00
0.2165E+02     0.5974E+00     0.1399E+00
0.2170E+02     0.5726E+00     0.1488E+00
0.2175E+02     0.5468E+00     0.1589E+00
0.2180E+02     0.5199E+00     0.1704E+00
0.2185E+02     0.4920E+00     0.1837E+00
0.2190E+02     0.4632E+00     0.1990E+00
0.2195E+02     0.4337E+00     0.2169E+00
0.2200E+02     0.4038E+00     0.2377E+00
0.2205E+02     0.3743E+00     0.2617E+00
0.2210E+02     0.3459E+00     0.2890E+00
0.2215E+02     0.3195E+00     0.3193E+00
0.2220E+02     0.2958E+00     0.3521E+00
0.2225E+02     0.2752E+00     0.3865E+00
0.2230E+02     0.2576E+00     0.4216E+00
0.2234E+02     0.2428E+00     0.4568E+00
0.2239E+02     0.2304E+00     0.4917E+00
0.2244E+02     0.2200E+00     0.5260E+00
0.2249E+02     0.2113E+00     0.5596E+00
0.2254E+02     0.2040E+00     0.5924E+00
0.2259E+02     0.1977E+00     0.6245E+00
0.2264E+02     0.1924E+00     0.6559E+00
0.2269E+02     0.1879E+00     0.6867E+00
0.2274E+02     0.1841E+00     0.7168E+00
0.2279E+02     0.1808E+00     0.7464E+00
0.2284E+02     0.1780E+00     0.7755E+00
0.2289E+02     0.1756E+00     0.8041E+00
0.2294E+02     0.1736E+00     0.8323E+00
0.2299E+02     0.1719E+00     0.8601E+00
0.2304E+02     0.1705E+00     0.8877E+00
0.2309E+02     0.1693E+00     0.9149E+00
0.2314E+02     0.1684E+00     0.9418E+00
0.2319E+02     0.1677E+00     0.9686E+00
0.2324E+02     0.1672E+00     0.9951E+00
0.2329E+02     0.1668E+00     0.1022E+01
0.2333E+02     0.1667E+00     0.1048E+01
0.2338E+02     0.1667E+00     0.1074E+01
0.2343E+02     0.1668E+00     0.1100E+01
0.2348E+02     0.1671E+00     0.1126E+01
0.2353E+02     0.1675E+00     0.1152E+01
0.2358E+02     0.1681E+00     0.1177E+01
0.2363E+02     0.1687E+00     0.1203E+01
0.2368E+02     0.1695E+00     0.1229E+01
0.2373E+02     0.1705E+00     0.1255E+01
0.2378E+02     0.1715E+00     0.1281E+01
0.2383E+02     0.1726E+00     0.1306E+01
0.2388E+02     0.1739E+00     0.1332E+01
0.2393E+02     0.1752E+00     0.1358E+01
0.2398E+02     0.1767E+00     0.1384E+01
0.2403E+02     0.1783E+00     0.1411E+01
0.2408E+02     0.1800E+00     0.1437E+01
0.2413E+02     0.1818E+00     0.1463E+01
0.2418E+02     0.1837E+00     0.1490E+01
0.2423E+02     0.1858E+00     0.1517E+01
0.2427E+02     0.1880E+00     0.1544E+01
0.2432E+02     0.1902E+00     0.1571E+01
0.2437E+02     0.1926E+00     0.1598E+01
0.2442E+02     0.1952E+00     0.1625E+01
0.2447E+02     0.1978E+00     0.1653E+01
0.2452E+02     0.2006E+00     0.1681E+01
0.2457E+02     0.2036E+00     0.1709E+01
0.2462E+02     0.2066E+00     0.1738E+01
0.2467E+02     0.2099E+00     0.1767E+01
0.2472E+02     0.2132E+00     0.1796E+01
0.2477E+02     0.2168E+00     0.1825E+01
0.2482E+02     0.2205E+00     0.1855E+01
0.2487E+02     0.2243E+00     0.1885E+01
0.2492E+02     0.2284E+00     0.1916E+01
0.2497E+02     0.2326E+00     0.1946E+01
0.2502E+02     0.2371E+00     0.1978E+01
0.2507E+02     0.2417E+00     0.2010E+01
0.2512E+02     0.2466E+00     0.2042E+01
0.2517E+02     0.2517E+00     0.2074E+01
0.2522E+02     0.2570E+00     0.2108E+01
0.2527E+02     0.2626E+00     0.2141E+01
0.2531E+02     0.2685E+00     0.2176E+01
0.2536E+02     0.2747E+00     0.2211E+01
0.2541E+02     0.2811E+00     0.2246E+01
0.2546E+02     0.2879E+00     0.2282E+01
0.2551E+02     0.2950E+00     0.2319E+01
0.2556E+02     0.3025E+00     0.2357E+01
0.2561E+02     0.3103E+00     0.2395E+01
0.2566E+02     0.3186E+00     0.2434E+01
0.2571E+02     0.3273E+00     0.2474E+01
0.2576E+02     0.3365E+00     0.2515E+01
0.2581E+02     0.3462E+00     0.2556E+01
0.2586E+02     0.3564E+00     0.2599E+01
0.2591E+02     0.3672E+00     0.2642E+01
